Time (s),Channel 1 (V),Channel 2 (V)
-1,-0.5251553341779674,-2.480918590165212
-0.99975,-0.527178453920505,-2.481255563322245
-0.9995000000000001,-0.5288643870392863,-2.481255563322245
-0.99925,-0.5298759469105551,-2.481255563322245
-0.999,-0.5298759469105551,-2.480581617008179
-0.99875,-0.5312246934055801,-2.480581617008179
-0.9985000000000001,-0.533584999771874,-2.480918590165212
-0.99825,-0.5359453061381678,-2.481592536479279
-0.998,-0.5376312392569491,-2.481592536479279
-0.99775,-0.5389799857519741,-2.481592536479279
-0.9975000000000001,-0.5403287322469992,-2.481929509636312
-0.99725,-0.5416774787420242,-2.481592536479279
-0.997,-0.5430262252370492,-2.481592536479279
-0.99675,-0.5437005984845618,-2.481592536479279
-0.9965000000000001,-0.5450493449795868,-2.481255563322245
-0.99625,-0.5463980914746118,-2.481255563322245
-0.996,-0.5477468379696369,-2.481255563322245
-0.99575,-0.549095584464662,-2.481255563322245
-0.9955000000000001,-0.5501071443359308,-2.481255563322245
-0.99525,-0.5514558908309558,-2.481255563322245
-0.995,-0.5531418239497371,-2.481255563322245
-0.99475,-0.5538161971972496,-2.480918590165212
-0.9945000000000001,-0.5551649436922746,-2.480918590165212
-0.99425,-0.5568508768110559,-2.480918590165212
-0.994,-0.5585368099298372,-2.481255563322245
-0.99375,-0.5598855564248623,-2.481255563322245
-0.9935,-0.560897116296131,-2.481255563322245
-0.99325,-0.5622458627911561,-2.481255563322245
-0.993,-0.5635946092861812,-2.481255563322245
-0.99275,-0.56460616915745,-2.480918590165212
-0.9925,-0.5656177290287188,-2.480918590165212
-0.99225,-0.5666292888999875,-2.480918590165212
-0.992,-0.5679780353950126,-2.480581617008179
-0.99175,-0.5693267818900376,-2.480581617008179
-0.9915,-0.5703383417613064,-2.480581617008179
-0.99125,-0.5720242748800877,-2.480918590165212
-0.991,-0.573710207998869,-2.480918590165212
-0.99075,-0.5753961411176503,-2.481255563322245
-0.9905,-0.576407700988919,-2.480918590165212
-0.99025,-0.5774192608601878,-2.480918590165212
-0.99,-0.5787680073552129,-2.480918590165212
-0.98975,-0.580116753850238,-2.480918590165212
-0.9895,-0.581465500345263,-2.481255563322245
-0.98925,-0.5831514334640443,-2.481255563322245
-0.989,-0.5845001799590693,-2.481255563322245
-0.98875,-0.5851745532065818,-2.481255563322245
-0.9885,-0.5865232997016069,-2.480918590165212
-0.98825,-0.5878720461966319,-2.480918590165212
-0.988,-0.5892207926916569,-2.480918590165212
-0.98775,-0.590569539186682,-2.480918590165212
-0.9875,-0.591918285681707,-2.480918590165212
-0.98725,-0.5929298455529758,-2.480918590165212
-0.987,-0.5939414054242447,-2.480918590165212
-0.98675,-0.5952901519192697,-2.480918590165212
-0.9865,-0.5966388984142947,-2.480581617008179
-0.98625,-0.5979876449093198,-2.480918590165212
-0.986,-0.5989992047805885,-2.480918590165212
-0.98575,-0.6003479512756136,-2.480918590165212
-0.9855,-0.6020338843943949,-2.480581617008179
-0.98525,-0.6033826308894199,-2.480918590165212
-0.985,-0.6047313773844449,-2.480918590165212
-0.98475,-0.60608012387947,-2.481255563322245
-0.9845,-0.607428870374495,-2.480918590165212
-0.98425,-0.6084404302457639,-2.480918590165212
-0.984,-0.6097891767407889,-2.480918590165212
-0.98375,-0.6097891767407889,-2.480244643851146
-0.9835,-0.6114751098595702,-2.480581617008179
-0.98325,-0.6128238563545952,-2.480581617008179
-0.983,-0.613835416225864,-2.480244643851146
-0.98275,-0.613835416225864,-2.479570697537079
-0.9825,-0.615184162720889,-2.479570697537079
-0.98225,-0.6175444690871829,-2.480244643851146
-0.982,-0.6195675888297204,-2.480581617008179
-0.98175,-0.6209163353247454,-2.480918590165212
-0.9815,-0.6222650818197705,-2.480918590165212
-0.98125,-0.6239510149385519,-2.480918590165212
-0.981,-0.6252997614335769,-2.480918590165212
-0.98075,-0.6259741346810894,-2.480918590165212
-0.9805,-0.6269856945523582,-2.480918590165212
-0.98025,-0.6276600677998707,-2.480581617008179
-0.98,-0.6290088142948957,-2.480581617008179
-0.97975,-0.6296831875424083,-2.480581617008179
-0.9795,-0.6310319340374333,-2.480244643851146
-0.97925,-0.6320434939087021,-2.480244643851146
-0.979,-0.6333922404037271,-2.480244643851146
-0.97875,-0.6347409868987521,-2.480244643851146
-0.9785,-0.6360897333937772,-2.480244643851146
-0.97825,-0.6374384798888022,-2.480244643851146
-0.978,-0.6384500397600711,-2.479907670694112
-0.97775,-0.6391244130075836,-2.480244643851146
-0.9775,-0.6408103461263649,-2.480244643851146
-0.97725,-0.6418219059976337,-2.480244643851146
-0.977,-0.6428334658689024,-2.480244643851146
-0.97675,-0.6445193989876837,-2.480244643851146
-0.9765,-0.6455309588589525,-2.480244643851146
-0.97625,-0.6468797053539775,-2.480244643851146
-0.976,-0.6478912652252463,-2.480244643851146
-0.97575,-0.6492400117202713,-2.480244643851146
-0.9755,-0.6509259448390526,-2.480244643851146
-0.97525,-0.6519375047103214,-2.480244643851146
-0.975,-0.6522746913340777,-2.479907670694112
-0.97475,-0.6532862512053466,-2.479570697537079
-0.9745,-0.6553093709478841,-2.480244643851146
-0.9742499999999999,-0.6566581174429091,-2.480244643851146
-0.974,-0.6569953040666654,-2.479570697537079
-0.97375,-0.6569953040666654,-2.478896751223012
-0.9735,-0.6580068639379342,-2.478896751223012
-0.9732499999999999,-0.660367170304228,-2.479570697537079
-0.973,-0.6623902900467655,-2.480244643851146
-0.97275,-0.6637390365417906,-2.480244643851146
-0.9725,-0.6647505964130593,-2.480244643851146
-0.9722499999999999,-0.6660993429080844,-2.480244643851146
-0.972,-0.6674480894031094,-2.480581617008179
-0.97175,-0.6687968358981345,-2.480244643851146
-0.9715,-0.6694712091456471,-2.480244643851146
-0.9712499999999999,-0.6708199556406721,-2.480244643851146
-0.971,-0.6721687021356971,-2.480244643851146
-0.97075,-0.6731802620069659,-2.480244643851146
-0.9705,-0.6741918218782347,-2.480244643851146
-0.9702499999999999,-0.6755405683732597,-2.480244643851146
-0.97,-0.6768893148682847,-2.480244643851146
-0.96975,-0.6779008747395535,-2.480244643851146
-0.9695,-0.6792496212345785,-2.480581617008179
-0.9692499999999999,-0.6802611811058473,-2.480244643851146
-0.969,-0.6809355543533598,-2.480244643851146
-0.96875,-0.6822843008483849,-2.479907670694112
-0.9685,-0.68363304734341,-2.480244643851146
-0.9682500000000001,-0.6843074205909225,-2.479907670694112
-0.968,-0.684981793838435,-2.479570697537079
-0.96775,-0.6859933537097038,-2.479570697537079
-0.9675,-0.6870049135809726,-2.479233724380046
-0.9672500000000001,-0.6873421002047289,-2.478559778065979
-0.967,-0.6883536600759976,-2.477885831751912
-0.96675,-0.6890280333235101,-2.477548858594879
-0.9665,-0.6893652199472664,-2.476874912280812
-0.9662500000000001,-0.6897024065710227,-2.476200965966746
-0.966,-0.6903767798185352,-2.475863992809713
-0.96575,-0.6907139664422914,-2.474853073338612
-0.9655,-0.6910511530660477,-2.474179127024546
-0.9652500000000001,-0.6917255263135602,-2.473505180710479
-0.965,-0.6917255263135602,-2.472831234396413
-0.96475,-0.6920627129373165,-2.471820314925313
-0.9645,-0.6923998995610727,-2.471146368611246
-0.9642500000000001,-0.6923998995610727,-2.470472422297179
-0.964,-0.6930742728085852,-2.469461502826079
-0.96375,-0.6934114594323415,-2.46845058335498
-0.9635,-0.6930742728085852,-2.467776637040913
-0.9632500000000001,-0.6937486460560978,-2.467102690726847
-0.963,-0.694085832679854,-2.466091771255746
-0.96275,-0.6934114594323415,-2.465080851784646
-0.9625,-0.694085832679854,-2.46440690547058
-0.96225,-0.694085832679854,-2.46339598599948
-0.962,-0.694085832679854,-2.462722039685413
-0.96175,-0.6947602059273665,-2.461711120214313
-0.9615,-0.6947602059273665,-2.461037173900247
-0.96125,-0.6947602059273665,-2.460026254429147
-0.961,-0.6954345791748791,-2.459015334958047
-0.96075,-0.6950973925511228,-2.458004415486947
-0.9605,-0.6954345791748791,-2.456993496015847
-0.96025,-0.6950973925511228,-2.455982576544747
-0.96,-0.6954345791748791,-2.454971657073647
-0.95975,-0.6957717657986353,-2.453960737602547
-0.9595,-0.6957717657986353,-2.453286791288481
-0.95925,-0.6957717657986353,-2.451938898660347
-0.959,-0.6961089524223916,-2.451264952346281
-0.95875,-0.6961089524223916,-2.450254032875181
-0.9585,-0.6961089524223916,-2.449243113404081
-0.95825,-0.6961089524223916,-2.448232193932981
-0.958,-0.6964461390461478,-2.447221274461881
-0.95775,-0.6961089524223916,-2.446210354990781
-0.9575,-0.6954345791748791,-2.444862462362648
-0.95725,-0.6961089524223916,-2.444525489205615
-0.957,-0.6967833256699041,-2.443851542891548
-0.95675,-0.6971205122936603,-2.442840623420448
-0.9565,-0.6957717657986353,-2.441492730792315
-0.95625,-0.6954345791748791,-2.440144838164182
-0.956,-0.6957717657986353,-2.439807865007148
-0.95575,-0.6974576989174166,-2.439470891850115
-0.9555,-0.6977948855411729,-2.438796945536048
-0.95525,-0.6974576989174166,-2.437449052907915
-0.955,-0.6974576989174166,-2.436438133436815
-0.95475,-0.6977948855411729,-2.435427213965715
-0.9545,-0.6974576989174166,-2.434416294494615
-0.95425,-0.6977948855411729,-2.433405375023515
-0.954,-0.6981320721649291,-2.432394455552415
-0.95375,-0.6981320721649291,-2.431383536081316
-0.9535,-0.6977948855411729,-2.430372616610216
-0.95325,-0.6984692587886855,-2.429361697139115
-0.953,-0.6977948855411729,-2.428350777668016
-0.95275,-0.6977948855411729,-2.427339858196916
-0.9525,-0.6977948855411729,-2.426328938725816
-0.95225,-0.6977948855411729,-2.425654992411749
-0.952,-0.6981320721649291,-2.424644072940649
-0.95175,-0.6984692587886855,-2.423970126626583
-0.9515,-0.6981320721649291,-2.422959207155483
-0.95125,-0.6984692587886855,-2.421948287684383
-0.951,-0.6988064454124417,-2.421274341370316
-0.95075,-0.6988064454124417,-2.420263421899216
-0.9505,-0.6984692587886855,-2.418915529271083
-0.95025,-0.6981320721649291,-2.417904609799983
-0.95,-0.6981320721649291,-2.416893690328883
-0.94975,-0.6984692587886855,-2.416219744014816
-0.9495,-0.6984692587886855,-2.415208824543717
-0.94925,-0.6988064454124417,-2.414197905072617
-0.949,-0.6984692587886855,-2.413186985601516
-0.94875,-0.6984692587886855,-2.412176066130417
-0.9485,-0.6988064454124417,-2.41150211981635
-0.94825,-0.6988064454124417,-2.41049120034525
-0.948,-0.6981320721649291,-2.409143307717117
-0.94775,-0.6988064454124417,-2.40846936140305
-0.9475,-0.6988064454124417,-2.40745844193195
-0.94725,-0.6988064454124417,-2.406447522460851
-0.947,-0.6977948855411729,-2.40543660298975
-0.94675,-0.6967833256699041,-2.40442568351865
-0.9465,-0.6974576989174166,-2.403751737204584
-0.94625,-0.699143632036198,-2.404088710361617
-0.946,-0.699143632036198,-2.403414764047551
-0.94575,-0.6994808186599543,-2.402403844576451
-0.9455,-0.6994808186599543,-2.401392925105351
-0.94525,-0.6994808186599543,-2.400382005634251
-0.945,-0.6994808186599543,-2.399371086163151
-0.94475,-0.6994808186599543,-2.398360166692051
-0.9445,-0.6994808186599543,-2.397349247220951
-0.94425,-0.699143632036198,-2.396675300906884
-0.944,-0.699143632036198,-2.395664381435784
-0.94375,-0.699143632036198,-2.394653461964685
-0.9435,-0.6994808186599543,-2.393979515650618
-0.94325,-0.699143632036198,-2.392968596179518
-0.9429999999999999,-0.6994808186599543,-2.392294649865451
-0.94275,-0.6994808186599543,-2.391283730394351
-0.9425,-0.6998180052837105,-2.390272810923252
-0.94225,-0.6994808186599543,-2.389261891452152
-0.9419999999999999,-0.699143632036198,-2.388250971981052
-0.94175,-0.699143632036198,-2.387240052509952
-0.9415,-0.6994808186599543,-2.386566106195885
-0.94125,-0.6994808186599543,-2.385892159881819
-0.9409999999999999,-0.6998180052837105,-2.384881240410718
-0.94075,-0.6998180052837105,-2.384207294096652
-0.9405,-0.6994808186599543,-2.383196374625552
-0.94025,-0.6998180052837105,-2.382522428311485
-0.9399999999999999,-0.700492378531223,-2.381511508840386
-0.93975,-0.7001551919074668,-2.380837562526319
-0.9395,-0.7001551919074668,-2.379826643055219
-0.93925,-0.7001551919074668,-2.378815723584119
-0.9389999999999999,-0.7001551919074668,-2.378141777270052
-0.93875,-0.6998180052837105,-2.377130857798953
-0.9385,-0.700492378531223,-2.376456911484886
-0.93825,-0.7001551919074668,-2.375445992013786
-0.9379999999999999,-0.7001551919074668,-2.374772045699719
-0.93775,-0.7001551919074668,-2.373761126228619
-0.9375,-0.700492378531223,-2.373087179914553
-0.93725,-0.700492378531223,-2.372076260443453
-0.9370000000000001,-0.700492378531223,-2.371402314129386
-0.93675,-0.700492378531223,-2.370391394658286
-0.9365,-0.700492378531223,-2.369380475187186
-0.93625,-0.700492378531223,-2.368369555716086
-0.9360000000000001,-0.7008295651549793,-2.36769560940202
-0.93575,-0.700492378531223,-2.367021663087953
-0.9355,-0.7008295651549793,-2.366010743616853
-0.93525,-0.7008295651549793,-2.364999824145753
-0.9350000000000001,-0.700492378531223,-2.364325877831686
-0.93475,-0.7008295651549793,-2.363314958360587
-0.9345,-0.7008295651549793,-2.36264101204652
-0.93425,-0.700492378531223,-2.36163009257542
-0.9340000000000001,-0.7008295651549793,-2.360956146261354
-0.93375,-0.7015039384024918,-2.360282199947287
-0.9335,-0.7011667517787356,-2.359271280476187
-0.93325,-0.7008295651549793,-2.358260361005087
-0.9330000000000001,-0.7008295651549793,-2.357249441533987
-0.93275,-0.7008295651549793,-2.35657549521992
-0.9325,-0.7008295651549793,-2.355901548905854
-0.93225,-0.7011667517787356,-2.354890629434754
-0.9320000000000001,-0.7011667517787356,-2.354216683120687
-0.93175,-0.7008295651549793,-2.353542736806621
-0.9315,-0.7011667517787356,-2.352868790492554
-0.93125,-0.7011667517787356,-2.351857871021454
-0.931,-0.7011667517787356,-2.351183924707387
-0.93075,-0.7015039384024918,-2.350509978393321
-0.9305,-0.7011667517787356,-2.349499058922221
-0.93025,-0.7008295651549793,-2.348488139451121
-0.93,-0.7011667517787356,-2.347814193137054
-0.92975,-0.7011667517787356,-2.346803273665954
-0.9295,-0.7015039384024918,-2.346129327351888
-0.92925,-0.7015039384024918,-2.345455381037821
-0.929,-0.7011667517787356,-2.344444461566721
-0.92875,-0.7011667517787356,-2.343770515252654
-0.9285,-0.700492378531223,-2.342422622624521
-0.92825,-0.7018411250262481,-2.342422622624521
-0.928,-0.7018411250262481,-2.341411703153422
-0.92775,-0.7015039384024918,-2.340400783682322
-0.9275,-0.700492378531223,-2.339052891054188
-0.92725,-0.7001551919074668,-2.338378944740122
-0.927,-0.7011667517787356,-2.338378944740122
-0.92675,-0.7025154982737606,-2.338378944740122
-0.9265,-0.7025154982737606,-2.337368025269022
-0.92625,-0.7021783116500043,-2.336357105797922
-0.926,-0.7021783116500043,-2.335346186326822
-0.92575,-0.7018411250262481,-2.334335266855722
-0.9255,-0.7018411250262481,-2.333661320541655
-0.92525,-0.7015039384024918,-2.332650401070556
-0.925,-0.7018411250262481,-2.331976454756489
-0.92475,-0.7018411250262481,-2.331302508442422
-0.9245,-0.7015039384024918,-2.330291588971322
-0.92425,-0.7018411250262481,-2.329617642657256
-0.924,-0.7018411250262481,-2.328943696343189
-0.92375,-0.7018411250262481,-2.327932776872089
-0.9235,-0.7018411250262481,-2.327258830558022
-0.92325,-0.7021783116500043,-2.326584884243956
-0.923,-0.7018411250262481,-2.325910937929889
-0.92275,-0.7018411250262481,-2.324900018458789
-0.9225,-0.7018411250262481,-2.324226072144723
-0.92225,-0.7018411250262481,-2.323552125830656
-0.922,-0.7018411250262481,-2.322878179516589
-0.92175,-0.7021783116500043,-2.322204233202523
-0.9215,-0.7021783116500043,-2.321530286888456
-0.92125,-0.7021783116500043,-2.32085634057439
-0.921,-0.7025154982737606,-2.31984542110329
-0.92075,-0.7021783116500043,-2.319171474789223
-0.9205,-0.7021783116500043,-2.318497528475156
-0.92025,-0.7021783116500043,-2.31782358216109
-0.92,-0.7021783116500043,-2.317486609004056
-0.91975,-0.7021783116500043,-2.316475689532957
-0.9195,-0.7028526848975168,-2.31580174321889
-0.91925,-0.7028526848975168,-2.315127796904823
-0.919,-0.7021783116500043,-2.314116877433723
-0.91875,-0.7015039384024918,-2.313105957962623
-0.9185,-0.7025154982737606,-2.31276898480559
-0.91825,-0.7025154982737606,-2.312095038491524
-0.918,-0.7021783116500043,-2.311421092177457
-0.91775,-0.7008295651549793,-2.310073199549323
-0.9175,-0.7011667517787356,-2.309399253235257
-0.91725,-0.7021783116500043,-2.30973622639229
-0.917,-0.7031898715212731,-2.309399253235257
-0.91675,-0.7028526848975168,-2.308388333764157
-0.9165,-0.7028526848975168,-2.30771438745009
-0.91625,-0.7025154982737606,-2.307040441136024
-0.916,-0.7028526848975168,-2.306366494821957
-0.91575,-0.7025154982737606,-2.305355575350857
-0.9155,-0.7025154982737606,-2.304681629036791
-0.91525,-0.7028526848975168,-2.304007682722724
-0.915,-0.7028526848975168,-2.303333736408657
-0.91475,-0.7025154982737606,-2.302659790094591
-0.9145,-0.7028526848975168,-2.301985843780524
-0.91425,-0.7028526848975168,-2.301311897466457
-0.914,-0.7028526848975168,-2.300637951152391
-0.91375,-0.7031898715212731,-2.299964004838324
-0.9135,-0.7031898715212731,-2.298953085367224
-0.91325,-0.7028526848975168,-2.298279139053158
-0.913,-0.7025154982737606,-2.297942165896124
-0.91275,-0.7028526848975168,-2.297268219582058
-0.9125,-0.7031898715212731,-2.296594273267991
-0.91225,-0.7028526848975168,-2.295920326953925
-0.912,-0.7031898715212731,-2.295246380639858
-0.9117499999999999,-0.7031898715212731,-2.294572434325791
-0.9115,-0.7028526848975168,-2.293898488011725
-0.91125,-0.7028526848975168,-2.293224541697658
-0.911,-0.7028526848975168,-2.292550595383591
-0.9107499999999999,-0.7031898715212731,-2.291876649069525
-0.9105,-0.7028526848975168,-2.291202702755458
-0.91025,-0.7031898715212731,-2.290528756441391
-0.91,-0.7028526848975168,-2.289854810127325
-0.9097499999999999,-0.7031898715212731,-2.289180863813258
-0.9095,-0.7028526848975168,-2.288506917499192
-0.90925,-0.7025154982737606,-2.287832971185125
-0.909,-0.7025154982737606,-2.287495998028092
-0.9087499999999999,-0.7031898715212731,-2.286822051714025
-0.9085,-0.7031898715212731,-2.286148105399958
-0.90825,-0.7031898715212731,-2.285811132242925
-0.908,-0.7035270581450294,-2.285137185928859
-0.9077499999999999,-0.7031898715212731,-2.284463239614792
-0.9075,-0.7028526848975168,-2.283789293300725
-0.90725,-0.7031898715212731,-2.283452320143692
-0.907,-0.7031898715212731,-2.282441400672592
-0.9067499999999999,-0.7035270581450294,-2.282104427515559
-0.9065,-0.7031898715212731,-2.281430481201492
-0.90625,-0.7035270581450294,-2.280756534887425
-0.906,-0.7031898715212731,-2.280082588573359
-0.9057500000000001,-0.7031898715212731,-2.279408642259292
-0.9055,-0.7031898715212731,-2.279071669102259
-0.90525,-0.7031898715212731,-2.278397722788192
-0.905,-0.7031898715212731,-2.277723776474126
-0.9047500000000001,-0.7035270581450294,-2.277049830160059
-0.9045,-0.7035270581450294,-2.276712857003026
-0.90425,-0.7035270581450294,-2.275701937531926
-0.904,-0.7035270581450294,-2.275364964374893
-0.9037500000000001,-0.7038642447687856,-2.274691018060826
-0.9035,-0.7035270581450294,-2.274354044903792
-0.90325,-0.7035270581450294,-2.273680098589726
-0.903,-0.7035270581450294,-2.273343125432693
-0.9027500000000001,-0.7035270581450294,-2.272669179118626
-0.9025,-0.7035270581450294,-2.271995232804559
-0.90225,-0.7038642447687856,-2.271658259647526
-0.902,-0.7038642447687856,-2.27098431333346
-0.9017500000000001,-0.7038642447687856,-2.270310367019393
-0.9015,-0.7035270581450294,-2.269636420705326
-0.90125,-0.7035270581450294,-2.26896247439126
-0.901,-0.7031898715212731,-2.268288528077193
-0.9007500000000001,-0.7035270581450294,-2.26795155492016
-0.9005,-0.7031898715212731,-2.267277608606093
-0.90025,-0.7035270581450294,-2.26694063544906
-0.9,-0.7038642447687856,-2.266266689134993
-0.89975,-0.7038642447687856,-2.26592971597796
-0.8995,-0.7038642447687856,-2.265255769663893
-0.89925,-0.7038642447687856,-2.26491879650686
-0.899,-0.7031898715212731,-2.26390787703576
